# Time [MJD], Angular separation [deg]
5.951951852623370360e+04,8.850122070312500000e+01
5.951992485410172958e+04,8.891271972656250000e+01
5.952033118196975556e+04,8.928606414794921875e+01
5.952073750983778154e+04,8.974048614501953125e+01
5.952114383770581480e+04,9.010130310058593750e+01
5.952155016557384079e+04,9.055455017089843750e+01
5.952195649344186677e+04,9.098731994628906250e+01
5.952236282130989275e+04,9.138493347167968750e+01
5.952276914917791873e+04,9.182750701904296875e+01
5.952317547704594472e+04,9.218997955322265625e+01
5.952358180491397798e+04,9.264654541015625000e+01
5.952398813278200396e+04,9.301478576660156250e+01
5.952439446065002994e+04,9.343724060058593750e+01
5.952480078851805592e+04,9.385296630859375000e+01
5.952520711638608191e+04,9.422309112548828125e+01
5.952561344425410789e+04,9.469107055664062500e+01
5.952601977212213387e+04,9.504309082031250000e+01
5.952642609999016713e+04,9.549562835693359375e+01
5.952683242785819311e+04,9.588693237304687500e+01
5.952723875572621910e+04,9.630417633056640625e+01
5.952764508359424508e+04,9.672859954833984375e+01
5.952805141146227106e+04,9.709088134765625000e+01
5.952845773933029704e+04,9.754866027832031250e+01
5.952886406719832303e+04,9.791940307617187500e+01
5.952927039506635629e+04,9.834125518798828125e+01
5.952967672293438227e+04,9.876065826416015625e+01
5.953008305080240825e+04,9.912414550781250000e+01
5.953048937867043423e+04,9.959416198730468750e+01
5.953089570653846022e+04,9.994820404052734375e+01
5.953130203440648620e+04,1.003980865478515625e+02
5.953170836227451946e+04,1.007922210693359375e+02
5.953211469014254544e+04,1.011877365112304688e+02
5.953252101801057142e+04,1.016373062133789062e+02
5.953292734587859741e+04,1.019990386962890625e+02
5.953333367374662339e+04,1.024577255249023438e+02
5.953374000161464937e+04,1.028305892944335938e+02
5.953414632948267536e+04,1.032711944580078125e+02
5.953455265735070861e+04,1.036740951538085938e+02
5.953495898521873460e+04,1.040385055541992188e+02
5.953536531308676058e+04,1.045097732543945312e+02
5.953577164095478656e+04,1.048659667968750000e+02
5.953617796882281255e+04,1.053082885742187500e+02
5.953658429669083853e+04,1.057060089111328125e+02
5.953699062455887179e+04,1.060990066528320312e+02
5.953739695242689777e+04,1.065529708862304688e+02
5.953780328029492375e+04,1.069140548706054688e+02
5.953820960816294973e+04,1.073739929199218750e+02
5.953861593603097572e+04,1.077486572265625000e+02
5.953902226389900170e+04,1.081688842773437500e+02
5.953942859176702768e+04,1.085945434570312500e+02
5.953983491963506094e+04,1.089584045410156250e+02
5.954024124750308692e+04,1.094310760498046875e+02
5.954064757537111291e+04,1.097891311645507812e+02
5.954105390323913889e+04,1.102322845458984375e+02
5.954146023110716487e+04,1.106326293945312500e+02
5.954186655897519086e+04,1.110192337036132812e+02
5.954227288684322411e+04,1.114769287109375000e+02
5.954267921471125010e+04,1.118364334106445312e+02
5.954308554257927608e+04,1.122962646484375000e+02
5.954349187044730206e+04,1.126756210327148438e+02
5.954389819831532805e+04,1.130948715209960938e+02
5.954430452618335403e+04,1.135232543945312500e+02
5.954471085405138001e+04,1.138874588012695312e+02
5.954511718191941327e+04,1.143619842529296875e+02
5.954552350978743925e+04,1.147220840454101562e+02
5.954592983765546524e+04,1.151657333374023438e+02
5.954633616552349122e+04,1.155694351196289062e+02
5.954674249339151720e+04,1.159541549682617188e+02
5.954714882125954318e+04,1.164152221679687500e+02
5.954755514912756917e+04,1.167710189819335938e+02
5.954796147699560242e+04,1.172329025268554688e+02
5.954836780486362841e+04,1.176151733398437500e+02
5.954877413273165439e+04,1.180323104858398438e+02
5.954918046059968037e+04,1.184664077758789062e+02
5.954958678846770636e+04,1.188293685913085938e+02
5.954999311633573234e+04,1.193047561645507812e+02
5.955039944420376560e+04,1.196666641235351562e+02
5.955080577207179158e+04,1.201103363037109375e+02
5.955121209993981756e+04,1.205169677734375000e+02
5.955161842780784355e+04,1.209013824462890625e+02
5.955202475567586953e+04,1.213657531738281250e+02
5.955243108354389551e+04,1.217170867919921875e+02
5.955283741141192149e+04,1.221796417236328125e+02
5.955324373927995475e+04,1.225650558471679688e+02
5.955365006714798074e+04,1.229780731201171875e+02
5.955405639501600672e+04,1.234159622192382812e+02
5.955446272288403270e+04,1.237784805297851562e+02
5.955486905075205868e+04,1.242558822631835938e+02
5.955527537862008467e+04,1.246211090087890625e+02
5.955568170648811792e+04,1.250634460449218750e+02
5.955608803435614391e+04,1.254723815917968750e+02
5.955649436222416989e+04,1.258558807373046875e+02
5.955690069009219587e+04,1.263232192993164062e+02
5.955730701796022186e+04,1.266747665405273438e+02
5.955771334582824784e+04,1.271369247436523438e+02
5.955811967369627382e+04,1.275245132446289062e+02
5.955852600156430708e+04,1.279310455322265625e+02
5.955893232943233306e+04,1.283722381591796875e+02
5.955933865730035905e+04,1.287320861816406250e+02
5.955974498516838503e+04,1.292098083496093750e+02
5.956015131303641101e+04,1.295774536132812500e+02
5.956055764090443699e+04,1.300178680419921875e+02
5.956096396877246298e+04,1.304299163818359375e+02
5.956137029664049624e+04,1.308123168945312500e+02
5.956177662450852222e+04,1.312818450927734375e+02
5.956218295237654820e+04,1.316343536376953125e+02
5.956258928024457418e+04,1.320956726074218750e+02
5.956299560811260017e+04,1.324855651855468750e+02
5.956340193598062615e+04,1.328907928466796875e+02
5.956380826384865941e+04,1.333351135253906250e+02
5.956421459171668539e+04,1.336870574951171875e+02
5.956462091958471137e+04,1.341649627685546875e+02
5.956502724745273736e+04,1.345348663330078125e+02
5.956543357532076334e+04,1.349719085693359375e+02
5.956583990318878932e+04,1.353880615234375000e+02
5.956624623105681530e+04,1.357689514160156250e+02
5.956665255892484856e+04,1.362398986816406250e+02
5.956705888679287455e+04,1.365926361083984375e+02
5.956746521466090053e+04,1.370523529052734375e+02
5.956787154252892651e+04,1.374438629150390625e+02
5.956827787039695249e+04,1.378481140136718750e+02
5.956868419826497848e+04,1.382944183349609375e+02
5.956909052613301174e+04,1.386472320556640625e+02
5.956949685400103772e+04,1.391241760253906250e+02
5.956990318186906370e+04,1.394960937500000000e+02
5.957030950973708968e+04,1.399258422851562500e+02
5.957071583760511567e+04,1.403449554443359375e+02
5.957112216547314165e+04,1.407219696044921875e+02
5.957152849334116763e+04,1.411951446533203125e+02
5.957193482120920089e+04,1.415502929687500000e+02
5.957234114907722687e+04,1.420097961425781250e+02
5.957274747694525286e+04,1.424024810791015625e+02
5.957315380481327884e+04,1.428053588867187500e+02
5.957356013268130482e+04,1.432543487548828125e+02
5.957396646054933080e+04,1.436072387695312500e+02
5.957437278841736406e+04,1.440839691162109375e+02
5.957477911628539005e+04,1.444577178955078125e+02
5.957518544415341603e+04,1.448850555419921875e+02
5.957559177202144201e+04,1.453067626953125000e+02
5.957599809988946799e+04,1.456790771484375000e+02
5.957640442775749398e+04,1.461532897949218750e+02
5.957681075562551996e+04,1.465101623535156250e+02
5.957721708349355322e+04,1.469675140380859375e+02
5.957762341136157920e+04,1.473644561767578125e+02
5.957802973922960518e+04,1.477647399902343750e+02
5.957843606709763117e+04,1.482159271240234375e+02
5.957884239496565715e+04,1.485687561035156250e+02
5.957924872283368313e+04,1.490446624755859375e+02
5.957965505070170911e+04,1.494204559326171875e+02
5.958006137856974237e+04,1.498468475341796875e+02
5.958046770643776836e+04,1.502709350585937500e+02
5.958087403430579434e+04,1.506383361816406250e+02
5.958128036217382032e+04,1.511134490966796875e+02
5.958168669004184630e+04,1.514714660644531250e+02
5.958209301790987229e+04,1.519241943359375000e+02
5.958249934577790555e+04,1.523229370117187500e+02
5.958290567364593153e+04,1.527212219238281250e+02
5.958331200151395751e+04,1.531763610839843750e+02
5.958371832938198349e+04,1.535286865234375000e+02
5.958412465725000948e+04,1.540035705566406250e+02
5.958453098511803546e+04,1.543798675537109375e+02
5.958493731298606144e+04,1.548030548095703125e+02
5.958534364085409470e+04,1.552296295166015625e+02
5.958574996872212068e+04,1.555961151123046875e+02
5.958615629659014667e+04,1.560714569091796875e+02
5.958656262445817265e+04,1.564301605224609375e+02
5.958696895232619863e+04,1.568761749267578125e+02
5.958737528019422462e+04,1.572767791748046875e+02
5.958778160806225787e+04,1.576699676513671875e+02
5.958818793593028386e+04,1.581267395019531250e+02
5.958859426379830984e+04,1.584781036376953125e+02
5.958900059166633582e+04,1.589504241943359375e+02
5.958940691953436180e+04,1.593283386230468750e+02
5.958981324740238779e+04,1.597485198974609375e+02
5.959021957527041377e+04,1.601757354736328125e+02
5.959062590313844703e+04,1.605401763916015625e+02
5.959103223100647301e+04,1.610137786865234375e+02
5.959143855887449899e+04,1.613720703125000000e+02
5.959184488674252498e+04,1.618146362304687500e+02
5.959225121461055096e+04,1.622154998779296875e+02
5.959265754247857694e+04,1.625977478027343750e+02
5.959306387034661020e+04,1.630549011230468750e+02
5.959347019821463618e+04,1.634041290283203125e+02
5.959387652608266217e+04,1.638700408935546875e+02
5.959428285395068815e+04,1.642480468750000000e+02
5.959468918181871413e+04,1.646624908447265625e+02
5.959509550968674012e+04,1.650901489257812500e+02
5.959550183755476610e+04,1.654506225585937500e+02
5.959590816542279936e+04,1.659207763671875000e+02
5.959631449329082534e+04,1.662773132324218750e+02
5.959672082115885132e+04,1.667145080566406250e+02
5.959712714902687731e+04,1.671134033203125000e+02
5.959753347689490329e+04,1.674905548095703125e+02
5.959793980476292927e+04,1.679442443847656250e+02
5.959834613263095525e+04,1.682891082763671875e+02
5.959875246049898851e+04,1.687408142089843750e+02
5.959915878836701449e+04,1.691147003173828125e+02
5.959956511623504048e+04,1.695192871093750000e+02
5.959997144410306646e+04,1.699423675537109375e+02
5.960037777197109244e+04,1.702940826416015625e+02
5.960078409983911843e+04,1.707534637451171875e+02
5.960119042770715168e+04,1.711020202636718750e+02
5.960159675557517767e+04,1.715253753662109375e+02
5.960200308344320365e+04,1.719135894775390625e+02
5.960240941131122963e+04,1.722772827148437500e+02
5.960281573917925562e+04,1.727147064208984375e+02
5.960322206704728160e+04,1.730433654785156250e+02
5.960362839491530758e+04,1.734700927734375000e+02
5.960403472278334084e+04,1.738231048583984375e+02
5.960444105065136682e+04,1.741920928955078125e+02
5.960484737851939281e+04,1.745820159912109375e+02
5.960525370638741879e+04,1.748968048095703125e+02
5.960566003425544477e+04,1.753017272949218750e+02
5.960606636212347075e+04,1.756027221679687500e+02
5.960647268999150401e+04,1.759506988525390625e+02
5.960687901785952999e+04,1.762555541992187500e+02
5.960728534572755598e+04,1.765204925537109375e+02
5.960769167359558196e+04,1.768119964599609375e+02
5.960809800146360794e+04,1.770016784667968750e+02
5.960850432933163393e+04,1.772019805908203125e+02
5.960891065719965991e+04,1.773197174072265625e+02
5.960931698506769317e+04,1.773861694335937500e+02
5.960972331293571915e+04,1.773875579833984375e+02
5.961012964080374513e+04,1.773346252441406250e+02
5.961053596867177112e+04,1.771933593750000000e+02
5.961094229653979710e+04,1.770359191894531250e+02
5.961134862440782308e+04,1.768025970458984375e+02
5.961175495227584906e+04,1.765458068847656250e+02
5.961216128014388232e+04,1.762837829589843750e+02
5.961256760801190831e+04,1.759350738525390625e+02
5.961297393587993429e+04,1.756588134765625000e+02
5.961338026374796027e+04,1.752830810546875000e+02
5.961378659161598625e+04,1.749537658691406250e+02
5.961419291948401224e+04,1.746035308837890625e+02
5.961459924735204550e+04,1.742114562988281250e+02
5.961500557522007148e+04,1.738948211669921875e+02
5.961541190308809746e+04,1.734622802734375000e+02
5.961581823095612344e+04,1.731213073730468750e+02
5.961622455882414943e+04,1.727239227294921875e+02
5.961663088669217541e+04,1.723346252441406250e+02
5.961703721456020139e+04,1.719796142578125000e+02
5.961744354242823465e+04,1.715442047119140625e+02
5.961784987029626063e+04,1.711966247558593750e+02
5.961825619816428662e+04,1.707592620849609375e+02
5.961866252603231260e+04,1.703839721679687500e+02
5.961906885390033858e+04,1.699968872070312500e+02
5.961947518176836456e+04,1.695679168701171875e+02
5.961988150963639782e+04,1.692273864746093750e+02
5.962028783750442381e+04,1.687823638916015625e+02
5.962069416537244979e+04,1.684064941406250000e+02
5.962110049324047577e+04,1.680117645263671875e+02
5.962150682110850175e+04,1.675834655761718750e+02
5.962191314897652774e+04,1.672398681640625000e+02
5.962231947684455372e+04,1.667758789062500000e+02
5.962272580471258698e+04,1.664169311523437500e+02
5.962313213258061296e+04,1.659886169433593750e+02
5.962353846044863894e+04,1.655858306884765625e+02
5.962394478831666493e+04,1.652125091552734375e+02
5.962435111618469091e+04,1.647542419433593750e+02
5.962475744405271689e+04,1.644086761474609375e+02
5.962516377192075015e+04,1.639578247070312500e+02
5.962557009978877613e+04,1.635761718750000000e+02
5.962597642765680212e+04,1.631787261962890625e+02
5.962638275552482810e+04,1.627441558837890625e+02
5.962678908339285408e+04,1.623977050781250000e+02
5.962719541126088006e+04,1.619308624267578125e+02
5.962760173912890605e+04,1.615669860839843750e+02
5.962800806699693931e+04,1.611457214355468750e+02
5.962841439486496529e+04,1.607375030517578125e+02
5.962882072273299127e+04,1.603646392822265625e+02
5.962922705060101725e+04,1.599134368896484375e+02
5.962963337846904324e+04,1.595545501708984375e+02
5.963003970633706922e+04,1.591033782958984375e+02
5.963044603420509520e+04,1.587187042236328125e+02
5.963085236207312846e+04,1.583211059570312500e+02
5.963125868994115444e+04,1.578822631835937500e+02
5.963166501780918043e+04,1.575348358154296875e+02
5.963207134567720641e+04,1.570803375244140625e+02
5.963247767354523239e+04,1.566994934082031250e+02
5.963288400141325837e+04,1.562988891601562500e+02
5.963329032928129163e+04,1.558664703369140625e+02
5.963369665714931762e+04,1.555189208984375000e+02
5.963410298501734360e+04,1.550506591796875000e+02
5.963450931288536958e+04,1.546889343261718750e+02
5.963491564075339556e+04,1.542557220458984375e+02
5.963532196862142155e+04,1.538523254394531250e+02
5.963572829648944753e+04,1.534754486083984375e+02
5.963613462435748079e+04,1.530149536132812500e+02
5.963654095222550677e+04,1.526674041748046875e+02
5.963694728009353275e+04,1.522145538330078125e+02
5.963735360796155874e+04,1.518322143554687500e+02
5.963775993582958472e+04,1.514327087402343750e+02
5.963816626369761070e+04,1.509976043701171875e+02
5.963857259156564396e+04,1.506502838134765625e+02
5.963897891943366994e+04,1.501818389892578125e+02
5.963938524730169593e+04,1.498181457519531250e+02
5.963979157516972191e+04,1.493956298828125000e+02
5.964019790303774789e+04,1.489892425537109375e+02
5.964060423090577387e+04,1.486150665283203125e+02
5.964101055877379986e+04,1.481633605957031250e+02
5.964141688664183312e+04,1.478056030273437500e+02
5.964182321450985910e+04,1.473532409667968750e+02
5.964222954237788508e+04,1.469689025878906250e+02
5.964263587024591106e+04,1.465710144042968750e+02
5.964304219811393705e+04,1.461337127685546875e+02
5.964344852598196303e+04,1.457867431640625000e+02
5.964385485384998901e+04,1.453327636718750000e+02
5.964426118171802227e+04,1.449537353515625000e+02
5.964466750958604825e+04,1.445534057617187500e+02
5.964507383745407424e+04,1.441223754882812500e+02
5.964548016532210022e+04,1.437704162597656250e+02
5.964588649319012620e+04,1.433022308349609375e+02
5.964629282105815219e+04,1.429420166015625000e+02
5.964669914892618544e+04,1.425089416503906250e+02
5.964710547679421143e+04,1.421072540283203125e+02
5.964751180466223741e+04,1.417312011718750000e+02
5.964791813253026339e+04,1.412727203369140625e+02
5.964832446039828938e+04,1.409272613525390625e+02
5.964873078826631536e+04,1.404750823974609375e+02
5.964913711613434134e+04,1.400947418212890625e+02
5.964954344400237460e+04,1.396965332031250000e+02
5.964994977187040058e+04,1.392640838623046875e+02
5.965035609973842656e+04,1.389180297851562500e+02
5.965076242760645255e+04,1.384513092041015625e+02
5.965116875547447853e+04,1.380897827148437500e+02
5.965157508334250451e+04,1.376624145507812500e+02
5.965198141121053777e+04,1.372577819824218750e+02
5.965238773907856375e+04,1.368847198486328125e+02
5.965279406694658974e+04,1.364257507324218750e+02
5.965320039481461572e+04,1.360803680419921875e+02
5.965360672268264170e+04,1.356307830810546875e+02
5.965401305055066769e+04,1.352492370605468750e+02
5.965441937841869367e+04,1.348532257080078125e+02
5.965482570628672693e+04,1.344191284179687500e+02
5.965523203415475291e+04,1.340744934082031250e+02
5.965563836202277889e+04,1.336093597412109375e+02
5.965604468989080488e+04,1.332469482421875000e+02
5.965645101775883086e+04,1.328283081054687500e+02
5.965685734562685684e+04,1.324211273193359375e+02
5.965726367349489010e+04,1.320528106689453125e+02
5.965767000136291608e+04,1.316036682128906250e+02
5.965807632923094206e+04,1.312466278076171875e+02
5.965848265709896805e+04,1.307995758056640625e+02
5.965888898496699403e+04,1.304171600341796875e+02
5.965929531283502001e+04,1.300428009033203125e+02
5.965970164070304600e+04,1.295885009765625000e+02
5.966010796857107925e+04,1.292444610595703125e+02
5.966051429643910524e+04,1.287955169677734375e+02
5.966092062430713122e+04,1.284177856445312500e+02
5.966132695217515720e+04,1.280217895507812500e+02
5.966173328004318319e+04,1.275925903320312500e+02
5.966213960791120917e+04,1.272492294311523438e+02
5.966254593577923515e+04,1.267857971191406250e+02
5.966295226364726841e+04,1.264270935058593750e+02
5.966335859151529439e+04,1.260002822875976562e+02
5.966376491938332038e+04,1.255990676879882812e+02
5.966417124725134636e+04,1.252275161743164062e+02
5.966457757511937234e+04,1.247718734741210938e+02
5.966498390298739832e+04,1.244285202026367188e+02
5.966539023085543158e+04,1.239809570312500000e+02
5.966579655872345757e+04,1.236022720336914062e+02
5.966620288659148355e+04,1.232082519531250000e+02
5.966660921445950953e+04,1.227773132324218750e+02
5.966701554232753551e+04,1.224342269897460938e+02
5.966742187019556150e+04,1.219708404541015625e+02
5.966782819806358748e+04,1.216108398437500000e+02
5.966823452593162074e+04,1.211939926147460938e+02
5.966864085379964672e+04,1.207905197143554688e+02
5.966904718166767270e+04,1.203524169921875000e+02
5.966945350953569869e+04,1.199142990112304688e+02
5.966985983740372467e+04,1.195713806152343750e+02
5.967026616527175065e+04,1.191109848022460938e+02
5.967067249313978391e+04,1.187461700439453125e+02
5.967107882100780989e+04,1.183341217041015625e+02
5.967148514887583588e+04,1.179216766357421875e+02
5.967189147674386186e+04,1.175660095214843750e+02
5.967229780461188784e+04,1.171186752319335938e+02
5.967270413247991382e+04,1.167575225830078125e+02
5.967311046034793981e+04,1.163425903320312500e+02
5.967351678821597307e+04,1.159367675781250000e+02
5.967392311608399905e+04,1.155791931152343750e+02
5.967432944395202503e+04,1.151220779418945312e+02
5.967473577182005101e+04,1.147774200439453125e+02
5.967514209968807700e+04,1.143350677490234375e+02
5.967554842755610298e+04,1.139549102783203125e+02
5.967595475542412896e+04,1.135666122436523438e+02
5.967636108329216222e+04,1.131325302124023438e+02
5.967676741116018820e+04,1.127912902832031250e+02
5.967717373902821419e+04,1.123316421508789062e+02
5.967758006689624017e+04,1.119698638916015625e+02
5.967798639476426615e+04,1.115576248168945312e+02
5.967839272263229213e+04,1.111501922607421875e+02
5.967879905050032539e+04,1.107942123413085938e+02
5.967920537836835138e+04,1.103369445800781250e+02
5.967961170623637736e+04,1.099920349121093750e+02
5.968001803410440334e+04,1.095606155395507812e+02
5.968042436197242932e+04,1.091778411865234375e+02
5.968083068984045531e+04,1.087937850952148438e+02
5.968123701770848129e+04,1.083590087890625000e+02
