# Time [MJD], Angular separation [deg]
5.837950013425925863e+04,4.483053207397460938e+01
5.837991189898404991e+04,4.517712402343750000e+01
5.838032366370884847e+04,4.562769317626953125e+01
5.838073542843363975e+04,4.600026321411132812e+01
5.838114719315843831e+04,4.640092086791992188e+01
5.838155895788322960e+04,4.682580184936523438e+01
5.838197072260802088e+04,4.717599487304687500e+01
5.838238248733281944e+04,4.763855361938476562e+01
5.838279425205761072e+04,4.799127960205078125e+01
5.838320601678240928e+04,4.841948318481445312e+01
5.838361778150720056e+04,4.881581878662109375e+01
5.838402954623199184e+04,4.918596649169921875e+01
5.838444131095679040e+04,4.963987731933593750e+01
5.838485307568158169e+04,4.997918319702148438e+01
5.838526484040638024e+04,5.042694854736328125e+01
5.838567660513117153e+04,5.080163955688476562e+01
5.838608836985596281e+04,5.120098495483398438e+01
5.838650013458076137e+04,5.162961578369140625e+01
5.838691189930555265e+04,5.199528503417968750e+01
5.838732366403035121e+04,5.244359970092773438e+01
5.838773542875514249e+04,5.279907226562500000e+01
5.838814719347994105e+04,5.324462509155273438e+01
5.838855895820473233e+04,5.362707138061523438e+01
5.838897072292952362e+04,5.401702117919921875e+01
5.838938248765432218e+04,5.445435714721679688e+01
5.838979425237911346e+04,5.479465103149414062e+01
5.839020601710391202e+04,5.525850296020507812e+01
5.839061778182870330e+04,5.562064361572265625e+01
5.839102954655349458e+04,5.603524017333984375e+01
5.839144131127829314e+04,5.647003555297851562e+01
5.839185307600308442e+04,5.685286712646484375e+01
5.839226484072788298e+04,5.729665374755859375e+01
5.839267660545267427e+04,5.764228439331054688e+01
5.839308837017746555e+04,5.810403060913085938e+01
5.839350013490226411e+04,5.847466278076171875e+01
5.839391189962705539e+04,5.888459014892578125e+01
5.839432366435185395e+04,5.930545425415039062e+01
5.839473542907664523e+04,5.966078948974609375e+01
5.839514719380143652e+04,6.012651062011718750e+01
5.839555895852623507e+04,6.047742462158203125e+01
5.839597072325102636e+04,6.091138076782226562e+01
5.839638248797582492e+04,6.130641174316406250e+01
5.839679425270061620e+04,6.168664932250976562e+01
5.839720601742540748e+04,6.213940048217773438e+01
5.839761778215020604e+04,6.249075317382812500e+01
5.839802954687499732e+04,6.294180679321289062e+01
5.839844131159979588e+04,6.331542968750000000e+01
5.839885307632458716e+04,6.374644851684570312e+01
5.839926484104937845e+04,6.415113067626953125e+01
5.839967660577417701e+04,6.452395629882812500e+01
5.840008837049896829e+04,6.498491668701171875e+01
5.840050013522376685e+04,6.532775115966796875e+01
5.840091189994855813e+04,6.578029632568359375e+01
5.840132366467334941e+04,6.616172027587890625e+01
5.840173542939814797e+04,6.655767822265625000e+01
5.840214719412293925e+04,6.699269104003906250e+01
5.840255895884773781e+04,6.734278106689453125e+01
5.840297072357252910e+04,6.781169128417968750e+01
5.840338248829732765e+04,6.817322540283203125e+01
5.840379425302211894e+04,6.860307312011718750e+01
5.840420601774691022e+04,6.901158905029296875e+01
5.840461778247170878e+04,6.940277862548828125e+01
5.840502954719650006e+04,6.984786224365234375e+01
5.840544131192129862e+04,7.019316101074218750e+01
5.840585307664608990e+04,7.066149902343750000e+01
5.840626484137088119e+04,7.102899932861328125e+01
5.840667660609567974e+04,7.144571685791015625e+01
5.840708837082047103e+04,7.186382293701171875e+01
5.840750013554526959e+04,7.222477722167968750e+01
5.840791190027006087e+04,7.269218444824218750e+01
5.840832366499485215e+04,7.304264831542968750e+01
5.840873542971965071e+04,7.348992919921875000e+01
5.840914719444444199e+04,7.388212585449218750e+01
5.840955895916924055e+04,7.427244567871093750e+01
5.840997072389403183e+04,7.472266387939453125e+01
5.841038248861882312e+04,7.512556457519531250e+01
5.841079425334362168e+04,7.559606933593750000e+01
5.841120601806841296e+04,7.595142364501953125e+01
5.841161778279321152e+04,7.638805389404296875e+01
5.841202954751800280e+04,7.678938293457031250e+01
5.841244131224279408e+04,7.716709899902343750e+01
5.841285307696759264e+04,7.762606048583984375e+01
5.841326484169238392e+04,7.797673034667968750e+01
5.841367660641718248e+04,7.843286132812500000e+01
5.841408837114197377e+04,7.881244659423828125e+01
5.841450013586676505e+04,7.924355316162109375e+01
5.841491190059156361e+04,7.965514373779296875e+01
5.841532366531635489e+04,8.002904510498046875e+01
5.841573543004115345e+04,8.049562835693359375e+01
5.841614719476594473e+04,8.084223175048828125e+01
5.841655895949073602e+04,8.129605865478515625e+01
5.841697072421553457e+04,8.168241882324218750e+01
5.841738248894032586e+04,8.207978820800781250e+01
5.841779425366512442e+04,8.252195739746093750e+01
5.841820601838991570e+04,8.286811065673828125e+01
5.841861778311470698e+04,8.334014892578125000e+01
5.841902954783950554e+04,8.370687103271484375e+01
5.841944131256429682e+04,8.413639068603515625e+01
5.841985307728909538e+04,8.455151367187500000e+01
5.842026484201388666e+04,8.494377136230468750e+01
5.842067660673868522e+04,8.539424133300781250e+01
5.842108837146347651e+04,8.574448394775390625e+01
5.842150013618826779e+04,8.621539306640625000e+01
5.842191190091306635e+04,8.658886718750000000e+01
5.842232366563785763e+04,8.700740051269531250e+01
5.842273543036265619e+04,8.743196105957031250e+01
5.842314719508744747e+04,8.779392242431640625e+01
5.842355895981223875e+04,8.826554107666015625e+01
5.842397072453703731e+04,8.862080383300781250e+01
5.842438248926182860e+04,8.906540679931640625e+01
5.842479425398662715e+04,8.946459960937500000e+01
5.842520601871141844e+04,8.985581970214843750e+01
5.842561778343620972e+04,9.031271362304687500e+01
5.842602954816100828e+04,9.066045379638671875e+01
5.842644131288579956e+04,9.113204956054687500e+01
5.842685307761059812e+04,9.150942993164062500e+01
5.842726484233538940e+04,9.194890594482421875e+01
5.842767660706018069e+04,9.235604858398437500e+01
5.842808837178497924e+04,9.273589324951171875e+01
5.842850013650977053e+04,9.319281768798828125e+01
5.842891190123456909e+04,9.355034637451171875e+01
5.842932366595936037e+04,9.401020050048828125e+01
5.842973543068415165e+04,9.439499664306640625e+01
5.843014719540895021e+04,9.480412292480468750e+01
5.843055896013374149e+04,9.524465179443359375e+01
5.843097072485854005e+04,9.560317230224609375e+01
5.843138248958333133e+04,9.607946777343750000e+01
5.843179425430812262e+04,9.644444274902343750e+01
5.843220601903292118e+04,9.688392639160156250e+01
5.843261778375771246e+04,9.729553985595703125e+01
5.843302954848251102e+04,9.767538452148437500e+01
5.843344131320730230e+04,9.814453887939453125e+01
5.843385307793209358e+04,9.849365234375000000e+01
5.843426484265689214e+04,9.895417022705078125e+01
5.843467660738168343e+04,9.934232330322265625e+01
5.843508837210648198e+04,9.976693725585937500e+01
5.843550013683127327e+04,1.001892013549804688e+02
5.843591190155607183e+04,1.005623550415039062e+02
5.843632366628086311e+04,1.010239486694335938e+02
5.843673543100565439e+04,1.013914718627929688e+02
5.843714719573045295e+04,1.018475875854492188e+02
5.843755896045524423e+04,1.022438812255859375e+02
5.843797072518004279e+04,1.026426544189453125e+02
5.843838248990483407e+04,1.030952453613281250e+02
5.843879425462962536e+04,1.034449539184570312e+02
5.843920601935442392e+04,1.039214324951171875e+02
5.843961778407921520e+04,1.042952041625976562e+02
5.844002954880401376e+04,1.047194290161132812e+02
5.844044131352880504e+04,1.051438903808593750e+02
5.844085307825359632e+04,1.055129089355468750e+02
5.844126484297839488e+04,1.059883956909179688e+02
5.844167660770318616e+04,1.063448028564453125e+02
5.844208837242798472e+04,1.067996749877929688e+02
5.844250013715277601e+04,1.071986923217773438e+02
5.844291190187756729e+04,1.076170578002929688e+02
5.844332366660236585e+04,1.080533981323242188e+02
5.844373543132715713e+04,1.084168167114257812e+02
5.844414719605195569e+04,1.088948822021484375e+02
5.844455896077674697e+04,1.092556838989257812e+02
5.844497072550153825e+04,1.096995010375976562e+02
5.844538249022633681e+04,1.101069869995117188e+02
5.844579425495112810e+04,1.104909286499023438e+02
5.844620601967592665e+04,1.109566802978515625e+02
5.844661778440071794e+04,1.113072357177734375e+02
5.844702954912550922e+04,1.117770385742187500e+02
5.844744131385030778e+04,1.121619873046875000e+02
5.844785307857509906e+04,1.125792999267578125e+02
5.844826484329989762e+04,1.130184478759765625e+02
5.844867660802468890e+04,1.133987045288085938e+02
5.844908837274948019e+04,1.138606719970703125e+02
5.844950013747427874e+04,1.142249832153320312e+02
5.844991190219907003e+04,1.146862792968750000e+02
5.845032366692386859e+04,1.150778732299804688e+02
5.845073543164865987e+04,1.154818649291992188e+02
5.845114719637345843e+04,1.159300308227539062e+02
5.845155896109824971e+04,1.162815780639648438e+02
5.845197072582304099e+04,1.167605514526367188e+02
5.845238249054783955e+04,1.171324615478515625e+02
5.845279425527263083e+04,1.175695877075195312e+02
5.845320601999742939e+04,1.179899368286132812e+02
5.845361778472222068e+04,1.183693618774414062e+02
5.845402954944701196e+04,1.188451156616210938e+02
5.845444131417181052e+04,1.191999435424804688e+02
5.845485307889660180e+04,1.196618270874023438e+02
5.845526484362140036e+04,1.200566711425781250e+02
5.845567660834619164e+04,1.204606323242187500e+02
5.845608837307098293e+04,1.209122467041015625e+02
5.845650013779578148e+04,1.212794189453125000e+02
5.845691190252057277e+04,1.217449111938476562e+02
5.845732366724537133e+04,1.221189193725585938e+02
5.845773543197016261e+04,1.225717620849609375e+02
5.845814719669495389e+04,1.229760818481445312e+02
5.845855896141975245e+04,1.233722763061523438e+02
5.845897072614454373e+04,1.238302917480468750e+02
5.845938249086934229e+04,1.241869659423828125e+02
5.845979425559413357e+04,1.246647644042968750e+02
5.846020602031892486e+04,1.250462875366210938e+02
5.846061778504372342e+04,1.254704132080078125e+02
5.846102954976851470e+04,1.259037322998046875e+02
5.846144131449331326e+04,1.262710189819335938e+02
5.846185307921810454e+04,1.267510452270507812e+02
5.846226484394289582e+04,1.271125564575195312e+02
5.846267660866769438e+04,1.275606536865234375e+02
5.846308837339248566e+04,1.279671478271484375e+02
5.846350013811728422e+04,1.283611450195312500e+02
5.846391190284207551e+04,1.288269653320312500e+02
5.846432366756686679e+04,1.291897583007812500e+02
5.846473543229166535e+04,1.296563415527343750e+02
5.846514719701645663e+04,1.300403289794921875e+02
5.846555896174125519e+04,1.304847564697265625e+02
5.846597072646604647e+04,1.309001464843750000e+02
5.846638249119084503e+04,1.312845764160156250e+02
5.846679425591563631e+04,1.317585601806640625e+02
5.846720602064042760e+04,1.321114959716796875e+02
5.846761778536522615e+04,1.325765533447265625e+02
5.846802955009001744e+04,1.329675903320312500e+02
5.846844131481481600e+04,1.333757019042968750e+02
5.846885307953960728e+04,1.338227844238281250e+02
5.846926484426439856e+04,1.341838378906250000e+02
5.846967660898919712e+04,1.346660461425781250e+02
5.847008837371398840e+04,1.350366363525390625e+02
5.847050013843878696e+04,1.354790649414062500e+02
5.847091190316357824e+04,1.358973846435546875e+02
5.847132366788836953e+04,1.362999877929687500e+02
5.847173543261316809e+04,1.367554473876953125e+02
5.847214719733795937e+04,1.371089477539062500e+02
5.847255896206275793e+04,1.375887145996093750e+02
5.847297072678754921e+04,1.379655456542968750e+02
5.847338249151234049e+04,1.383932189941406250e+02
5.847379425623713905e+04,1.388210754394531250e+02
5.847420602096193034e+04,1.391947021484375000e+02
5.847461778568672889e+04,1.396742553710937500e+02
5.847502955041152018e+04,1.400330657958984375e+02
5.847544131513631146e+04,1.404919891357421875e+02
5.847585307986111002e+04,1.408935852050781250e+02
5.847626484458590130e+04,1.412947235107421875e+02
5.847667660931069986e+04,1.417542114257812500e+02
5.847708837403549114e+04,1.421070251464843750e+02
5.847750013876028243e+04,1.425871734619140625e+02
5.847791190348508098e+04,1.429651184082031250e+02
5.847832366820987227e+04,1.434117584228515625e+02
5.847873543293467083e+04,1.438218231201171875e+02
5.847914719765946211e+04,1.442080841064453125e+02
5.847955896238425339e+04,1.448112487792968750e+02
5.847997072710905195e+04,1.451870117187500000e+02
5.848038249183384323e+04,1.456658325195312500e+02
5.848079425655864179e+04,1.460240020751953125e+02
5.848120602128343307e+04,1.465012207031250000e+02
5.848161778600822436e+04,1.468852386474609375e+02
5.848202955073302292e+04,1.473082122802734375e+02
5.848244131545781420e+04,1.477444000244140625e+02
5.848285308018261276e+04,1.481110229492187500e+02
5.848326484490740404e+04,1.485919189453125000e+02
5.848367660963220260e+04,1.489542083740234375e+02
5.848408837435699388e+04,1.494020080566406250e+02
5.848450013908178516e+04,1.498103179931640625e+02
5.848491190380658372e+04,1.501984863281250000e+02
5.848532366853137501e+04,1.506654357910156250e+02
5.848573543325617356e+04,1.510180511474609375e+02
5.848614719798096485e+04,1.514927520751953125e+02
5.848655896270575613e+04,1.518780822753906250e+02
5.848697072743055469e+04,1.522981414794921875e+02
5.848738249215534597e+04,1.527378997802734375e+02
5.848779425688014453e+04,1.531035308837890625e+02
5.848820602160493581e+04,1.535845642089843750e+02
5.848861778632972710e+04,1.539478607177734375e+02
5.848902955105452565e+04,1.544120483398437500e+02
5.848944131577931694e+04,1.548041687011718750e+02
5.848985308050411550e+04,1.552099304199218750e+02
5.849026484522890678e+04,1.556581878662109375e+02
5.849067660995369806e+04,1.560146636962890625e+02
5.849108837467849662e+04,1.564954528808593750e+02
5.849150013940328790e+04,1.568667755126953125e+02
5.849191190412808646e+04,1.573065948486328125e+02
5.849232366885287774e+04,1.577256469726562500e+02
5.849273543357766903e+04,1.581061248779296875e+02
5.849314719830246759e+04,1.585803070068359375e+02
5.849355896302725887e+04,1.589337158203125000e+02
5.849397072775205743e+04,1.593961334228515625e+02
5.849438249247684871e+04,1.597883911132812500e+02
5.849479425720163999e+04,1.601922302246093750e+02
5.849520602192643855e+04,1.606416625976562500e+02
5.849561778665122984e+04,1.610078277587890625e+02
5.849602955137602839e+04,1.614710083007812500e+02
5.849644131610081968e+04,1.618421020507812500e+02
5.849685308082561096e+04,1.622953186035156250e+02
5.849726484555040952e+04,1.626956939697265625e+02
5.849767661027520080e+04,1.630913391113281250e+02
5.849808837499999936e+04,1.635455932617187500e+02
5.849850013972479064e+04,1.638985137939453125e+02
5.849891190444958920e+04,1.643729095458984375e+02
5.849932366917438048e+04,1.647487792968750000e+02
5.849973543389917177e+04,1.651691284179687500e+02
5.850014719862397033e+04,1.655944061279296875e+02
5.850055896334876161e+04,1.659566040039062500e+02
5.850097072807356017e+04,1.664294128417968750e+02
5.850138249279835145e+04,1.667842407226562500e+02
5.850179425752314273e+04,1.672263641357421875e+02
5.850220602224794129e+04,1.676237945556640625e+02
5.850261778697273257e+04,1.680119628906250000e+02
5.850302955169753113e+04,1.684653930664062500e+02
5.850344131642232242e+04,1.688204650878906250e+02
5.850385308114711370e+04,1.692891845703125000e+02
5.850426484587191226e+04,1.696463012695312500e+02
5.850467661059670354e+04,1.700774230957031250e+02
5.850508837532150210e+04,1.704757080078125000e+02
5.850550014004629338e+04,1.708460998535156250e+02
5.850591190477108466e+04,1.712983856201171875e+02
5.850632366949588322e+04,1.716346435546875000e+02
5.850673543422067451e+04,1.720759429931640625e+02
5.850714719894547306e+04,1.724437561035156250e+02
5.850755896367026435e+04,1.728300781250000000e+02
5.850797072839505563e+04,1.732443847656250000e+02
5.850838249311985419e+04,1.735778503417968750e+02
5.850879425784464547e+04,1.740149383544921875e+02
5.850920602256944403e+04,1.743455047607421875e+02
5.850961778729423531e+04,1.747356109619140625e+02
5.851002955201902660e+04,1.750924682617187500e+02
5.851044131674382515e+04,1.754297485351562500e+02
5.851085308146861644e+04,1.757950897216796875e+02
5.851126484619341500e+04,1.760661926269531250e+02
5.851167661091820628e+04,1.764124298095703125e+02
5.851208837564299756e+04,1.766599426269531250e+02
5.851250014036779612e+04,1.769104614257812500e+02
5.851291190509258740e+04,1.771174163818359375e+02
5.851332366981738596e+04,1.772577667236328125e+02
5.851373543454217725e+04,1.773683471679687500e+02
5.851414719926697580e+04,1.773960113525390625e+02
5.851455896399176709e+04,1.773596801757812500e+02
5.851497072871655837e+04,1.772647857666015625e+02
5.851538249344135693e+04,1.771162261962890625e+02
5.851579425816614821e+04,1.768925476074218750e+02
5.851620602289094677e+04,1.766869659423828125e+02
5.851661778761573805e+04,1.763703155517578125e+02
5.851702955234052934e+04,1.760985107421875000e+02
5.851744131706532789e+04,1.757705230712890625e+02
5.851785308179011918e+04,1.754254760742187500e+02
5.851826484651491774e+04,1.751003570556640625e+02
5.851867661123970902e+04,1.747048034667968750e+02
5.851908837596450030e+04,1.743896179199218750e+02
5.851950014068929886e+04,1.739651184082031250e+02
5.851991190541409014e+04,1.736159057617187500e+02
5.852032367013888870e+04,1.732295684814453125e+02
5.852073543486367998e+04,1.728225708007812500e+02
5.852114719958847127e+04,1.724808502197265625e+02
5.852155896431326983e+04,1.720290985107421875e+02
5.852197072903806111e+04,1.716853637695312500e+02
5.852238249376285967e+04,1.712606506347656250e+02
5.852279425848765095e+04,1.708693847656250000e+02
5.852320602321244223e+04,1.705004425048828125e+02
5.852361778793724079e+04,1.700498199462890625e+02
5.852402955266203207e+04,1.697039642333984375e+02
5.852444131738683063e+04,1.692534790039062500e+02
5.852485308211162192e+04,1.688784637451171875e+02
5.852526484683641320e+04,1.684506683349609375e+02
5.852567661156121176e+04,1.680427246093750000e+02
5.852608837628600304e+04,1.676708831787109375e+02
5.852650014101080160e+04,1.672178192138671875e+02
5.852691190573559288e+04,1.668604736328125000e+02
5.852732367046038416e+04,1.664072418212890625e+02
5.852773543518518272e+04,1.660223999023437500e+02
5.852814719990997401e+04,1.656255950927734375e+02
5.852855896463477256e+04,1.651832885742187500e+02
5.852897072935956385e+04,1.648375396728515625e+02
5.852938249408436241e+04,1.643655700683593750e+02
5.852979425880915369e+04,1.639992065429687500e+02
5.853020602353394497e+04,1.635690917968750000e+02
5.853061778825874353e+04,1.631540527343750000e+02
5.853102955298353481e+04,1.627806701660156250e+02
5.853144131770833337e+04,1.623113708496093750e+02
5.853185308243312465e+04,1.619614562988281250e+02
5.853226484715791594e+04,1.614900817871093750e+02
5.853267661188271450e+04,1.611169281005859375e+02
5.853308837660750578e+04,1.606979675292968750e+02
5.853350014133230434e+04,1.602733612060546875e+02
5.853391190605709562e+04,1.599114227294921875e+02
5.853432367078188690e+04,1.594387817382812500e+02
5.853473543550668546e+04,1.590835723876953125e+02
5.853514720023147675e+04,1.586387329101562500e+02
5.853555896495627530e+04,1.582404022216796875e+02
5.853597072968106659e+04,1.578493957519531250e+02
5.853638249440585787e+04,1.573935546875000000e+02
5.853679425913065643e+04,1.570460205078125000e+02
5.853720602385544771e+04,1.565749053955078125e+02
5.853761778858024627e+04,1.561979827880859375e+02
5.853802955330503755e+04,1.557802581787109375e+02
5.853844131802982884e+04,1.553525695800781250e+02
5.853885308275462739e+04,1.549909210205078125e+02
5.853926484747941868e+04,1.545173339843750000e+02
5.853967661220421724e+04,1.541608886718750000e+02
5.854008837692900852e+04,1.537024841308593750e+02
5.854050014165379980e+04,1.533186492919921875e+02
5.854091190637859836e+04,1.529106292724609375e+02
5.854132367110338964e+04,1.524718475341796875e+02
5.854173543582818820e+04,1.521142272949218750e+02
5.854214720055297948e+04,1.516397247314453125e+02
5.854255896527777077e+04,1.512767791748046875e+02
5.854297073000256933e+04,1.508393402099609375e+02
5.854338249472736061e+04,1.504297943115234375e+02
