# Time [MJD], Angular separation [deg]
5.728350008796295879e+04,4.460551452636718750e+01
5.728391314135619177e+04,4.501431655883789062e+01
5.728432619474941748e+04,4.542858886718750000e+01
5.728473924814265047e+04,4.579945755004882812e+01
5.728515230153588345e+04,4.624317932128906250e+01
5.728556535492910916e+04,4.658978271484375000e+01
5.728597840832234215e+04,4.704250717163085938e+01
5.728639146171557513e+04,4.741535568237304688e+01
5.728680451510880084e+04,4.781744384765625000e+01
5.728721756850203383e+04,4.824242019653320312e+01
5.728763062189526681e+04,4.859342575073242188e+01
5.728804367528849252e+04,4.905688858032226562e+01
5.728845672868172551e+04,4.940911865234375000e+01
5.728886978207495122e+04,4.983812713623046875e+01
5.728928283546818420e+04,5.023301315307617188e+01
5.728969588886141719e+04,5.060425567626953125e+01
5.729010894225464290e+04,5.105744171142578125e+01
5.729052199564787588e+04,5.139813613891601562e+01
5.729093504904110887e+04,5.184621429443359375e+01
5.729134810243433458e+04,5.222068023681640625e+01
5.729176115582756756e+04,5.262251663208007812e+01
5.729217420922080055e+04,5.304994583129882812e+01
5.729258726261402626e+04,5.341719436645507812e+01
5.729300031600725924e+04,5.386534881591796875e+01
5.729341336940049223e+04,5.421980285644531250e+01
5.729382642279371794e+04,5.466731262207031250e+01
5.729423947618695092e+04,5.504803848266601562e+01
5.729465252958018391e+04,5.543891143798828125e+01
5.729506558297340962e+04,5.587572097778320312e+01
5.729547863636664260e+04,5.621666717529296875e+01
5.729589168975987559e+04,5.668152236938476562e+01
5.729630474315310130e+04,5.704147720336914062e+01
5.729671779654633428e+04,5.746355056762695312e+01
5.729713084993955999e+04,5.787262344360351562e+01
5.729754390333279298e+04,5.824010848999023438e+01
5.729795695672602596e+04,5.870249176025390625e+01
5.729837001011925167e+04,5.904758071899414062e+01
5.729878306351248466e+04,5.949569702148437500e+01
5.729919611690571764e+04,5.987921905517578125e+01
5.729960917029894335e+04,6.027082443237304688e+01
5.730002222369217634e+04,6.070960617065429688e+01
5.730043527708540933e+04,6.106633758544921875e+01
5.730084833047863503e+04,6.151795578002929688e+01
5.730126138387186802e+04,6.188140487670898438e+01
5.730167443726510101e+04,6.232063293457031250e+01
5.730208749065832671e+04,6.271328735351562500e+01
5.730250054405155970e+04,6.309927749633789062e+01
5.730291359744479269e+04,6.354456329345703125e+01
5.730332665083801840e+04,6.389044952392578125e+01
5.730373970423125138e+04,6.435536956787109375e+01
5.730415275762448437e+04,6.472575378417968750e+01
5.730456581101771008e+04,6.513830566406250000e+01
5.730497886441094306e+04,6.555852508544921875e+01
5.730539191780416877e+04,6.591602325439453125e+01
5.730580497119740176e+04,6.638325500488281250e+01
5.730621802459063474e+04,6.673445892333984375e+01
5.730663107798386045e+04,6.717076873779296875e+01
5.730704413137709344e+04,6.756554412841796875e+01
5.730745718477032642e+04,6.795144653320312500e+01
5.730787023816355213e+04,6.840341949462890625e+01
5.730828329155678512e+04,6.875801849365234375e+01
5.730869634495001810e+04,6.921166992187500000e+01
5.730910939834324381e+04,6.958361053466796875e+01
5.730952245173647680e+04,7.001803588867187500e+01
5.730993550512970978e+04,7.042058563232421875e+01
5.731034855852293549e+04,7.079537963867187500e+01
5.731076161191616848e+04,7.124714660644531250e+01
5.731117466530940146e+04,7.160028076171875000e+01
5.731158771870262717e+04,7.205461120605468750e+01
5.731200077209586016e+04,7.243497467041015625e+01
5.731241382548909314e+04,7.283989715576171875e+01
5.731282687888231885e+04,7.327452850341796875e+01
5.731323993227555184e+04,7.362915039062500000e+01
5.731365298566878482e+04,7.410018920898437500e+01
5.731406603906201053e+04,7.446060180664062500e+01
5.731447909245524352e+04,7.489527130126953125e+01
5.731489214584846923e+04,7.530078887939453125e+01
5.731530519924170221e+04,7.567692565917968750e+01
5.731571825263493520e+04,7.613977050781250000e+01
5.731613130602816091e+04,7.648484802246093750e+01
5.731654435942139389e+04,7.694009399414062500e+01
5.731695741281462688e+04,7.732275390625000000e+01
5.731737046620785259e+04,7.774600219726562500e+01
5.731778351960108557e+04,7.816167449951171875e+01
5.731819657299431856e+04,7.853215789794921875e+01
5.731860962638754427e+04,7.900002288818359375e+01
5.731902267978077725e+04,7.934979248046875000e+01
5.731943573317401024e+04,7.980268859863281250e+01
5.731984878656723595e+04,8.019300842285156250e+01
5.732026183996046893e+04,8.058854675292968750e+01
5.732067489335370192e+04,8.103381347656250000e+01
5.732108794674692763e+04,8.137989807128906250e+01
5.732150100014016061e+04,8.185060882568359375e+01
5.732191405353339360e+04,8.221947479248046875e+01
5.732232710692661931e+04,8.264000701904296875e+01
5.732274016031985229e+04,8.305794525146484375e+01
5.732315321371307800e+04,8.342800140380859375e+01
5.732356626710631099e+04,8.389733886718750000e+01
5.732397932049954397e+04,8.424871826171875000e+01
5.732439237389276968e+04,8.471729278564453125e+01
5.732480542728600267e+04,8.514619445800781250e+01
5.732521848067923565e+04,8.558370971679687500e+01
5.732563153407246136e+04,8.598996734619140625e+01
5.732604458746569435e+04,8.636842346191406250e+01
5.732645764085892733e+04,8.683272552490234375e+01
5.732687069425215304e+04,8.717963409423828125e+01
5.732728374764538603e+04,8.763758850097656250e+01
5.732769680103861901e+04,8.802130889892578125e+01
5.732810985443184472e+04,8.842868804931640625e+01
5.732852290782507771e+04,8.886709594726562500e+01
5.732893596121831069e+04,8.922474670410156250e+01
5.732934901461153640e+04,8.969877624511718750e+01
5.732976206800476939e+04,9.006230926513671875e+01
5.733017512139800237e+04,9.049987030029296875e+01
5.733058817479122808e+04,9.090891265869140625e+01
5.733100122818446107e+04,9.130751037597656250e+01
5.733141428157768678e+04,9.175407409667968750e+01
5.733182733497091976e+04,9.210208129882812500e+01
5.733224038836415275e+04,9.257660675048828125e+01
5.733265344175737846e+04,9.294688415527343750e+01
5.733306649515061144e+04,9.337234497070312500e+01
5.733347954854384443e+04,9.379208374023437500e+01
5.733389260193707014e+04,9.416538238525390625e+01
5.733430565533030313e+04,9.463735961914062500e+01
5.733471870872353611e+04,9.499063110351562500e+01
5.733513176211676182e+04,9.544707489013671875e+01
5.733554481550999481e+04,9.584092712402343750e+01
5.733595786890322779e+04,9.623955535888671875e+01
5.733637092229645350e+04,9.668917846679687500e+01
5.733678397568968649e+04,9.703831481933593750e+01
5.733719702908291947e+04,9.751376342773437500e+01
5.733761008247614518e+04,9.788600921630859375e+01
5.733802313586937817e+04,9.831047058105468750e+01
5.733843618926261115e+04,9.873218536376953125e+01
5.733884924265583686e+04,9.910461425781250000e+01
5.733926229604906985e+04,9.957881164550781250e+01
5.733967534944229556e+04,9.993362426757812500e+01
5.734008840283552854e+04,1.004068222045898438e+02
5.734050145622876153e+04,1.007866058349609375e+02
5.734091450962198724e+04,1.012065048217773438e+02
5.734132756301522022e+04,1.016381835937500000e+02
5.734174061640845321e+04,1.020021743774414062e+02
5.734215366980167892e+04,1.024788894653320312e+02
5.734256672319491190e+04,1.028382186889648438e+02
5.734297977658814489e+04,1.032825012207031250e+02
5.734339282998137060e+04,1.036872482299804688e+02
5.734380588337460358e+04,1.040764389038085938e+02
5.734421893676783657e+04,1.045397872924804688e+02
5.734463199016106228e+04,1.048994903564453125e+02
5.734504504355429526e+04,1.053619384765625000e+02
5.734545809694752825e+04,1.057434310913085938e+02
5.734587115034075396e+04,1.061843872070312500e+02
5.734628420373398694e+04,1.065975036621093750e+02
5.734669725712721993e+04,1.069788742065429688e+02
5.734711031052044564e+04,1.074397583007812500e+02
5.734752336391367862e+04,1.078002624511718750e+02
5.734793641730691161e+04,1.082619628906250000e+02
5.734834947070013732e+04,1.086509170532226562e+02
5.734876252409337030e+04,1.090555267333984375e+02
5.734917557748659601e+04,1.094996414184570312e+02
5.734958863087982900e+04,1.098585357666015625e+02
5.735000168427306198e+04,1.103372955322265625e+02
5.735041473766628769e+04,1.107054061889648438e+02
5.735082779105952068e+04,1.111454391479492188e+02
5.735124084445275366e+04,1.115614929199218750e+02
5.735165389784597937e+04,1.119428176879882812e+02
5.735206695123921236e+04,1.124153671264648438e+02
5.735248000463244534e+04,1.127658538818359375e+02
5.735289305802567105e+04,1.132281112670898438e+02
5.735330611141890404e+04,1.136186828613281250e+02
5.735371916481213702e+04,1.140232772827148438e+02
5.735413221820536273e+04,1.144696884155273438e+02
5.735454527159859572e+04,1.148433456420898438e+02
5.735495832499182870e+04,1.153069534301757812e+02
5.735537137838505441e+04,1.156766967773437500e+02
5.735578443177828740e+04,1.161353759765625000e+02
5.735619748517152038e+04,1.165346832275390625e+02
5.735661053856474609e+04,1.169349441528320312e+02
5.735702359195797908e+04,1.173892898559570312e+02
5.735743664535120479e+04,1.177425994873046875e+02
5.735784969874443777e+04,1.182210540771484375e+02
5.735826275213767076e+04,1.185969161987304688e+02
5.735867580553089647e+04,1.190230178833007812e+02
5.735908885892412945e+04,1.194505538940429688e+02
5.735950191231736244e+04,1.198203735351562500e+02
5.735991496571058815e+04,1.202982406616210938e+02
5.736032801910382113e+04,1.206566314697265625e+02
5.736074107249705412e+04,1.211142272949218750e+02
5.736115412589027983e+04,1.215151214599609375e+02
5.736156717928351281e+04,1.219360351562500000e+02
5.736198023267674580e+04,1.223740386962890625e+02
5.736239328606997151e+04,1.227397994995117188e+02
5.736280633946320449e+04,1.232049865722656250e+02
5.736321939285643748e+04,1.235821533203125000e+02
5.736363244624966319e+04,1.240282897949218750e+02
5.736404549964289617e+04,1.244372100830078125e+02
5.736445855303612916e+04,1.248235549926757812e+02
5.736487160642935487e+04,1.252836761474609375e+02
5.736528465982258786e+04,1.256434249877929688e+02
5.736569771321581356e+04,1.261166992187500000e+02
5.736611076660904655e+04,1.265028228759765625e+02
5.736652382000227954e+04,1.269222640991210938e+02
5.736693687339550524e+04,1.273626480102539062e+02
5.736734992678873823e+04,1.277284698486328125e+02
5.736776298018197122e+04,1.282098541259765625e+02
5.736817603357519693e+04,1.285742797851562500e+02
5.736858908696842991e+04,1.290211029052734375e+02
5.736900214036166290e+04,1.294317626953125000e+02
5.736941519375488861e+04,1.298181762695312500e+02
5.736982824714812159e+04,1.302877502441406250e+02
5.737024130054135458e+04,1.306459960937500000e+02
5.737065435393458029e+04,1.311123657226562500e+02
5.737106740732781327e+04,1.315001068115234375e+02
5.737148046072104626e+04,1.319411926269531250e+02
5.737189351411427197e+04,1.323607025146484375e+02
5.737230656750750495e+04,1.327431640625000000e+02
5.737271962090073794e+04,1.332201080322265625e+02
5.737313267429396365e+04,1.335748748779296875e+02
5.737354572768719663e+04,1.340394287109375000e+02
5.737395878108042962e+04,1.344331207275390625e+02
5.737437183447365533e+04,1.348391418457031250e+02
5.737478488786688831e+04,1.352899627685546875e+02
5.737519794126011402e+04,1.356438140869140625e+02
5.737561099465334701e+04,1.361250152587890625e+02
5.737602404804657999e+04,1.364982147216796875e+02
5.737643710143980570e+04,1.369372406005859375e+02
5.737685015483303869e+04,1.373588562011718750e+02
5.737726320822627167e+04,1.377590026855468750e+02
5.737767626161949738e+04,1.382173309326171875e+02
5.737808931501273037e+04,1.385730895996093750e+02
5.737850236840596335e+04,1.390530242919921875e+02
5.737891542179918906e+04,1.394315948486328125e+02
5.737932847519242205e+04,1.398583374023437500e+02
5.737974152858565503e+04,1.402894439697265625e+02
5.738015458197888074e+04,1.406578674316406250e+02
5.738056763537211373e+04,1.411374511718750000e+02
5.738098068876534671e+04,1.414975280761718750e+02
5.738139374215857242e+04,1.419534149169921875e+02
5.738180679555180541e+04,1.423578033447265625e+02
5.738221984894503839e+04,1.427567901611328125e+02
5.738263290233826410e+04,1.432195587158203125e+02
5.738304595573149709e+04,1.435725250244140625e+02
5.738345900912472280e+04,1.440513610839843750e+02
5.738387206251795578e+04,1.444309692382812500e+02
5.738428511591118877e+04,1.448780364990234375e+02
5.738469816930441448e+04,1.452889862060546875e+02
5.738511122269764746e+04,1.456748657226562500e+02
5.738552427609088045e+04,1.461370849609375000e+02
5.738593732948410616e+04,1.464983062744140625e+02
5.738635038287733914e+04,1.469666137695312500e+02
5.738676343627057213e+04,1.473550720214843750e+02
5.738717648966379784e+04,1.477729797363281250e+02
5.738758954305703082e+04,1.482146148681640625e+02
5.738800259645026381e+04,1.485790252685546875e+02
5.738841564984348952e+04,1.490603790283203125e+02
5.738882870323672250e+04,1.494272460937500000e+02
5.738924175662995549e+04,1.498725128173828125e+02
5.738965481002318120e+04,1.502849121093750000e+02
5.739006786341641418e+04,1.506699523925781250e+02
5.739048091680964717e+04,1.511407318115234375e+02
5.739089397020287288e+04,1.514935455322265625e+02
5.739130702359610586e+04,1.519584960937500000e+02
5.739172007698933157e+04,1.523476867675781250e+02
5.739213313038256456e+04,1.527631378173828125e+02
5.739254618377579754e+04,1.532069702148437500e+02
5.739295923716902325e+04,1.535868682861328125e+02
5.739337229056225624e+04,1.540514221191406250e+02
5.739378534395548922e+04,1.544192199707031250e+02
5.739419839734871493e+04,1.548814544677734375e+02
5.739461145074194792e+04,1.552764892578125000e+02
5.739502450413518090e+04,1.556800994873046875e+02
5.739543755752840661e+04,1.561319274902343750e+02
5.739585061092163960e+04,1.564828338623046875e+02
5.739626366431487259e+04,1.569625854492187500e+02
5.739667671770809829e+04,1.573363189697265625e+02
5.739708977110133128e+04,1.577665405273437500e+02
5.739750282449456427e+04,1.581857910156250000e+02
5.739791587788778997e+04,1.585606689453125000e+02
5.739832893128102296e+04,1.590332183837890625e+02
5.739874198467425595e+04,1.593849792480468750e+02
5.739915503806748166e+04,1.598412170410156250e+02
5.739956809146071464e+04,1.602329711914062500e+02
5.739998114485394035e+04,1.606310729980468750e+02
5.740039419824717334e+04,1.610785827636718750e+02
5.740080725164040632e+04,1.614253845214843750e+02
5.740122030503363203e+04,1.618997344970703125e+02
5.740163335842686502e+04,1.622682952880859375e+02
5.740204641182009800e+04,1.626921234130859375e+02
5.740245946521332371e+04,1.631137237548828125e+02
5.740287251860655670e+04,1.634877014160156250e+02
5.740328557199978968e+04,1.639613800048828125e+02
5.740369862539301539e+04,1.643151397705078125e+02
5.740411167878624838e+04,1.647709045410156250e+02
5.740452473217948136e+04,1.651659851074218750e+02
5.740493778557270707e+04,1.655636749267578125e+02
5.740535083896594006e+04,1.660126800537109375e+02
5.740576389235917304e+04,1.663602447509765625e+02
5.740617694575239875e+04,1.668331146240234375e+02
5.740658999914563174e+04,1.672029571533203125e+02
5.740700305253886472e+04,1.676227416992187500e+02
5.740741610593209043e+04,1.680399017333984375e+02
5.740782915932532342e+04,1.684056243896484375e+02
5.740824221271855640e+04,1.688736572265625000e+02
5.740865526611178211e+04,1.692225952148437500e+02
5.740906831950501510e+04,1.696855468750000000e+02
5.740948137289824081e+04,1.700574035644531250e+02
5.740989442629147379e+04,1.704655914306640625e+02
5.741030747968470678e+04,1.708863677978515625e+02
5.741072053307793249e+04,1.712377014160156250e+02
5.741113358647116547e+04,1.716962127685546875e+02
5.741154663986439846e+04,1.720400238037109375e+02
5.741195969325762417e+04,1.724623413085937500e+02
5.741237274665085715e+04,1.728447875976562500e+02
5.741278580004409014e+04,1.732056732177734375e+02
5.741319885343731585e+04,1.736351165771484375e+02
5.741361190683054883e+04,1.739556884765625000e+02
5.741402496022378182e+04,1.743811187744140625e+02
5.741443801361700753e+04,1.747199707031250000e+02
5.741485106701024051e+04,1.751007690429687500e+02
5.741526412040347350e+04,1.754496154785156250e+02
5.741567717379669921e+04,1.757586669921875000e+02
5.741609022718993219e+04,1.761145629882812500e+02
5.741650328058316518e+04,1.763764648437500000e+02
5.741691633397639089e+04,1.766829071044921875e+02
5.741732938736962387e+04,1.769106903076171875e+02
5.741774244076284958e+04,1.771091156005859375e+02
5.741815549415608257e+04,1.772740173339843750e+02
5.741856854754931555e+04,1.773582611083984375e+02
5.741898160094254126e+04,1.773963775634765625e+02
5.741939465433577425e+04,1.773653869628906250e+02
5.741980770772900723e+04,1.772626037597656250e+02
5.742022076112223294e+04,1.771053619384765625e+02
5.742063381451546593e+04,1.769189605712890625e+02
5.742104686790869891e+04,1.766408996582031250e+02
5.742145992130192462e+04,1.764070434570312500e+02
5.742187297469515761e+04,1.760729827880859375e+02
5.742228602808839059e+04,1.757709808349609375e+02
5.742269908148161630e+04,1.754444427490234375e+02
5.742311213487484929e+04,1.750691070556640625e+02
5.742352518826808227e+04,1.747493743896484375e+02
5.742393824166130798e+04,1.743410186767578125e+02
5.742435129505454097e+04,1.740079498291015625e+02
5.742476434844777395e+04,1.735924072265625000e+02
5.742517740184099966e+04,1.732239532470703125e+02
5.742559045523423265e+04,1.728525085449218750e+02
5.742600350862745836e+04,1.724257202148437500e+02
5.742641656202069134e+04,1.720917205810546875e+02
5.742682961541392433e+04,1.716381072998046875e+02
5.742724266880715004e+04,1.712792968750000000e+02
5.742765572220038302e+04,1.708720245361328125e+02
5.742806877559361601e+04,1.704604644775390625e+02
5.742848182898684172e+04,1.701065826416015625e+02
5.742889488238007470e+04,1.696441955566406250e+02
5.742930793577330769e+04,1.692964630126953125e+02
5.742972098916653340e+04,1.688540344238281250e+02
5.743013404255976639e+04,1.684627227783203125e+02
5.743054709595299937e+04,1.680541992187500000e+02
5.743096014934622508e+04,1.676250762939453125e+02
5.743137320273945807e+04,1.672688293457031250e+02
5.743178625613269105e+04,1.667989654541015625e+02
5.743219930952591676e+04,1.664425659179687500e+02
5.743261236291914975e+04,1.660053863525390625e+02
5.743302541631238273e+04,1.656035003662109375e+02
5.743343846970560844e+04,1.652251281738281250e+02
5.743385152309884143e+04,1.647649993896484375e+02
5.743426457649207441e+04,1.644190063476562500e+02
5.743467762988530012e+04,1.639566955566406250e+02
5.743509068327853311e+04,1.635757751464843750e+02
5.743550373667175882e+04,1.631647033691406250e+02
5.743591679006499180e+04,1.627301025390625000e+02
5.743632984345822479e+04,1.623714752197265625e+02
5.743674289685145050e+04,1.618974304199218750e+02
5.743715595024468348e+04,1.615379943847656250e+02
5.743756900363791647e+04,1.610813446044921875e+02
5.743798205703114218e+04,1.606938781738281250e+02
5.743839511042437516e+04,1.602945404052734375e+02
5.743880816381760815e+04,1.598504638671875000e+02
5.743922121721083386e+04,1.595032653808593750e+02
5.743963427060406684e+04,1.590290374755859375e+02
5.744004732399729983e+04,1.586614685058593750e+02
5.744046037739052554e+04,1.582297210693359375e+02
5.744087343078375852e+04,1.578136138916015625e+02
5.744128648417699151e+04,1.574386444091796875e+02
5.744169953757021722e+04,1.569685058593750000e+02
5.744211259096345020e+04,1.566179504394531250e+02
5.744252564435668319e+04,1.561615753173828125e+02
5.744293869774990890e+04,1.557722778320312500e+02
5.744335175114314188e+04,1.553733062744140625e+02
5.744376480453636759e+04,1.549276428222656250e+02
5.744417785792960058e+04,1.545806121826171875e+02
5.744459091132283356e+04,1.541068572998046875e+02
5.744500396471605927e+04,1.537377319335937500e+02
5.744541701810929226e+04,1.532896270751953125e+02
5.744583007150252524e+04,1.528911437988281250e+02
5.744624312489575095e+04,1.524989776611328125e+02
5.744665617828898394e+04,1.520473022460937500e+02
5.744706923168221692e+04,1.516960754394531250e+02
5.744748228507544263e+04,1.512247009277343750e+02
5.744789533846867562e+04,1.508493194580078125e+02
